Sample	ANC IV
Comments	
Filename	C:\Users\SR\Desktop\KV257~1.18\ANCIV_~1.ASC
Goniometer	MiniFlex 300/600 +
Attachment	Standard Sample Holder
Monochromater	None
10	1218.33
10.02	1278.33
10.04	1288.33
10.06	1115
10.08	1088.33
10.1	1196.67
10.12	1225
10.14	1103.33
10.16	1196.67
10.18	1211.67
10.2	1115
10.22	1201.67
10.24	1193.33
10.26	1166.67
10.28	1136.67
10.3	1165
10.32	1205
10.34	1163.33
10.36	1170
10.38	1191.67
10.4	1243.33
10.42	1193.33
10.44	1163.33
10.46	1168.33
10.48	1156.67
10.5	1151.67
10.52	1146.67
10.54	1185
10.56	1183.33
10.58	1160
10.6	1213.33
10.62	1161.67
10.64	1095
10.66	1171.67
10.68	1216.67
10.7	1275
10.72	1231.67
10.74	1155
10.76	1143.33
10.78	1118.33
10.8	1211.67
10.82	1115
10.84	1040
10.86	1148.33
10.88	1175
10.9	1131.67
10.92	1095
10.94	1120
10.96	1135
10.98	1093.33
11	1068.33
11.02	1011.67
11.04	1021.67
11.06	1110
11.08	1101.67
11.1	1131.67
11.12	1143.33
11.14	1088.33
11.16	1131.67
11.18	1161.67
11.2	1071.67
11.22	1025
11.24	1103.33
11.26	1088.33
11.28	1046.67
11.3	1103.33
11.32	1115
11.34	1106.67
11.36	1100
11.38	1040
11.4	1063.33
11.42	1091.67
11.44	1098.33
11.46	1085
11.48	1065
11.5	1076.67
11.52	1106.67
11.54	1085
11.56	1113.33
11.58	1143.33
11.6	1101.67
11.62	1066.67
11.64	1116.67
11.66	1128.33
11.68	1110
11.7	1086.67
11.72	1066.67
11.74	1105
11.76	1063.33
11.78	1050
11.8	1080
11.82	1065
11.84	1036.67
11.86	1043.33
11.88	1046.67
11.9	1086.67
11.92	1080
11.94	1083.33
11.96	1060
11.98	1095
12	1068.33
12.02	1071.67
12.04	1061.67
12.06	1098.33
12.08	1143.33
12.1	1085
12.12	1060
12.14	1111.67
12.16	1153.33
12.18	1131.67
12.2	1103.33
12.22	1048.33
12.24	1065
12.26	1101.67
12.28	1101.67
12.3	1100
12.32	1095
12.34	1076.67
12.36	1081.67
12.38	1063.33
12.4	1068.33
12.42	1038.33
12.44	996.667
12.46	1035
12.48	1025
12.5	1035
12.52	1063.33
12.54	1046.67
12.56	1013.33
12.58	1001.67
12.6	1053.33
12.62	1061.67
12.64	1026.67
12.66	1053.33
12.68	1050
12.7	1013.33
12.72	1046.67
12.74	1025
12.76	1058.33
12.78	1031.67
12.8	1003.33
12.82	983.333
12.84	988.333
12.86	1030
12.88	1001.67
12.9	970
12.92	1016.67
12.94	1070
12.96	1070
12.98	1076.67
13	1015
13.02	991.667
13.04	1066.67
13.06	1081.67
13.08	1031.67
13.1	980
13.12	963.333
13.14	978.333
13.16	948.333
13.18	968.333
13.2	1023.33
13.22	995
13.24	948.333
13.26	978.333
13.28	1033.33
13.3	1013.33
13.32	996.667
13.34	986.667
13.36	998.333
13.38	1006.67
13.4	1003.33
13.42	990
13.44	1023.33
13.46	1021.67
13.48	985
13.5	1033.33
13.52	1026.67
13.54	990
13.56	963.333
13.58	976.667
13.6	965
13.62	973.333
13.64	1020
13.66	1013.33
13.68	1001.67
13.7	1010
13.72	1000
13.74	983.333
13.76	968.333
13.78	973.333
13.8	1013.33
13.82	998.333
13.84	961.667
13.86	970
13.88	953.333
13.9	938.333
13.92	955
13.94	933.333
13.96	953.333
13.98	1000
14	971.667
14.02	923.333
14.04	921.667
14.06	956.667
14.08	950
14.1	923.333
14.12	911.667
14.14	925
14.16	923.333
14.18	916.667
14.2	903.333
14.22	931.667
14.24	943.333
14.26	931.667
14.28	908.333
14.3	948.333
14.32	995
14.34	970
14.36	956.667
14.38	936.667
14.4	915
14.42	891.667
14.44	890
14.46	966.667
14.48	1000
14.5	941.667
14.52	930
14.54	961.667
14.56	945
14.58	926.667
14.6	908.333
14.62	900
14.64	893.333
14.66	873.333
14.68	908.333
14.7	940
14.72	976.667
14.74	948.333
14.76	876.667
14.78	885
14.8	883.333
14.82	903.333
14.84	918.333
14.86	886.667
14.88	923.333
14.9	923.333
14.92	905
14.94	913.333
14.96	896.667
14.98	918.333
15	928.333
15.02	873.333
15.04	846.667
15.06	851.667
15.08	871.667
15.1	890
15.12	906.667
15.14	890
15.16	861.667
15.18	875
15.2	876.667
15.22	863.333
15.24	845
15.26	845
15.28	913.333
15.3	921.667
15.32	880
15.34	875
15.36	873.333
15.38	893.333
15.4	891.667
15.42	870
15.44	880
15.46	920
15.48	856.667
15.5	813.333
15.52	848.333
15.54	858.333
15.56	896.667
15.58	901.667
15.6	861.667
15.62	900
15.64	871.667
15.66	825
15.68	853.333
15.7	858.333
15.72	873.333
15.74	850
15.76	861.667
15.78	880
15.8	866.667
15.82	856.667
15.84	853.333
15.86	846.667
15.88	828.333
15.9	805
15.92	820
15.94	821.667
15.96	836.667
15.98	843.333
16	811.667
16.02	826.667
16.04	821.667
16.06	806.667
16.08	788.333
16.1	835
16.12	861.667
16.14	833.333
16.16	851.667
16.18	825
16.2	828.333
16.22	860
16.24	815
16.26	828.333
16.28	831.667
16.3	833.333
16.32	866.667
16.34	858.333
16.36	845
16.38	811.667
16.4	821.667
16.42	841.667
16.44	790
16.46	811.667
16.48	846.667
16.5	843.333
16.52	868.333
16.54	831.667
16.56	806.667
16.58	768.333
16.6	771.667
16.62	816.667
16.64	808.333
16.66	831.667
16.68	825
16.7	803.333
16.72	778.333
16.74	803.333
16.76	826.667
16.78	826.667
16.8	851.667
16.82	833.333
16.84	811.667
16.86	820
16.88	801.667
16.9	795
16.92	795
16.94	760
16.96	755
16.98	828.333
17	866.667
17.02	781.667
17.04	770
17.06	786.667
17.08	811.667
17.1	805
17.12	771.667
17.14	778.333
17.16	793.333
17.18	808.333
17.2	815
17.22	775
17.24	770
17.26	765
17.28	766.667
17.3	766.667
17.32	770
17.34	788.333
17.36	765
17.38	771.667
17.4	791.667
17.42	803.333
17.44	796.667
17.46	773.333
17.48	803.333
17.5	780
17.52	760
17.54	836.667
17.56	830
17.58	776.667
17.6	758.333
17.62	760
17.64	771.667
17.66	775
17.68	773.333
17.7	793.333
17.72	765
17.74	806.667
17.76	801.667
17.78	796.667
17.8	810
17.82	810
17.84	780
17.86	733.333
17.88	776.667
17.9	806.667
17.92	785
17.94	761.667
17.96	736.667
17.98	773.333
18	788.333
18.02	783.333
18.04	766.667
18.06	761.667
18.08	816.667
18.1	776.667
18.12	760
18.14	813.333
18.16	780
18.18	785
18.2	798.333
18.22	731.667
18.24	726.667
18.26	748.333
18.28	775
18.3	783.333
18.32	766.667
18.34	771.667
18.36	793.333
18.38	790
18.4	771.667
18.42	760
18.44	770
18.46	778.333
18.48	763.333
18.5	785
18.52	818.333
18.54	778.333
18.56	746.667
18.58	738.333
18.6	743.333
18.62	783.333
18.64	798.333
18.66	811.667
18.68	770
18.7	750
18.72	726.667
18.74	761.667
18.76	800
18.78	728.333
18.8	725
18.82	775
18.84	775
18.86	790
18.88	813.333
18.9	780
18.92	775
18.94	778.333
18.96	770
18.98	781.667
19	758.333
19.02	735
19.04	760
19.06	778.333
19.08	771.667
19.1	796.667
19.12	783.333
19.14	788.333
19.16	741.667
19.18	760
19.2	773.333
19.22	776.667
19.24	771.667
19.26	788.333
19.28	798.333
19.3	808.333
19.32	783.333
19.34	833.333
19.36	798.333
19.38	823.333
19.4	850
19.42	868.333
19.44	916.667
19.46	875
19.48	860
19.5	893.333
19.52	861.667
19.54	820
19.56	801.667
19.58	818.333
19.6	788.333
19.62	785
19.64	776.667
19.66	791.667
19.68	778.333
19.7	763.333
19.72	748.333
19.74	770
19.76	821.667
19.78	726.667
19.8	706.667
19.82	766.667
19.84	796.667
19.86	766.667
19.88	800
19.9	815
19.92	786.667
19.94	811.667
19.96	818.333
19.98	801.667
20	768.333
20.02	785
20.04	756.667
20.06	778.333
20.08	788.333
20.1	763.333
20.12	708.333
20.14	741.667
20.16	760
20.18	741.667
20.2	750
20.22	746.667
20.24	745
20.26	730
20.28	695
20.3	683.333
20.32	720
20.34	736.667
20.36	756.667
20.38	726.667
20.4	690
20.42	738.333
20.44	755
20.46	756.667
20.48	738.333
20.5	753.333
20.52	726.667
20.54	735
20.56	748.333
20.58	746.667
20.6	726.667
20.62	733.333
20.64	736.667
20.66	725
20.68	746.667
20.7	756.667
20.72	748.333
20.74	745
20.76	723.333
20.78	735
20.8	736.667
20.82	738.333
20.84	761.667
20.86	758.333
20.88	748.333
20.9	741.667
20.92	726.667
20.94	723.333
20.96	731.667
20.98	763.333
21	745
21.02	720
21.04	758.333
21.06	713.333
21.08	740
21.1	760
21.12	755
21.14	745
21.16	708.333
21.18	753.333
21.2	765
21.22	748.333
21.24	743.333
21.26	745
21.28	733.333
21.3	751.667
21.32	785
21.34	746.667
21.36	733.333
21.38	718.333
21.4	788.333
21.42	806.667
21.44	798.333
21.46	756.667
21.48	770
21.5	793.333
21.52	808.333
21.54	721.667
21.56	766.667
21.58	761.667
21.6	783.333
21.62	790
21.64	768.333
21.66	751.667
21.68	753.333
21.7	765
21.72	821.667
21.74	798.333
21.76	800
21.78	786.667
21.8	825
21.82	855
21.84	845
21.86	866.667
21.88	833.333
21.9	873.333
21.92	851.667
21.94	866.667
21.96	841.667
21.98	853.333
22	926.667
22.02	903.333
22.04	858.333
22.06	866.667
22.08	893.333
22.1	923.333
22.12	888.333
22.14	898.333
22.16	923.333
22.18	915
22.2	886.667
22.22	883.333
22.24	883.333
22.26	855
22.28	860
22.3	828.333
22.32	826.667
22.34	836.667
22.36	843.333
22.38	798.333
22.4	816.667
22.42	818.333
22.44	841.667
22.46	803.333
22.48	805
22.5	753.333
22.52	761.667
22.54	756.667
22.56	775
22.58	785
22.6	783.333
22.62	785
22.64	800
22.66	835
22.68	778.333
22.7	793.333
22.72	786.667
22.74	781.667
22.76	775
22.78	741.667
22.8	776.667
22.82	778.333
22.84	796.667
22.86	750
22.88	756.667
22.9	776.667
22.92	766.667
22.94	793.333
22.96	796.667
22.98	753.333
23	748.333
23.02	758.333
23.04	816.667
23.06	771.667
23.08	783.333
23.1	780
23.12	775
23.14	728.333
23.16	760
23.18	803.333
23.2	781.667
23.22	790
23.24	803.333
23.26	771.667
23.28	771.667
23.3	750
23.32	783.333
23.34	743.333
23.36	795
23.38	871.667
23.4	840
23.42	805
23.44	815
23.46	841.667
23.48	831.667
23.5	886.667
23.52	876.667
23.54	830
23.56	838.333
23.58	908.333
23.6	910
23.62	961.667
23.64	971.667
23.66	1005
23.68	1061.67
23.7	1155
23.72	1198.33
23.74	1375
23.76	1543.33
23.78	1643.33
23.8	1736.67
23.82	1995
23.84	2265
23.86	2396.67
23.88	2470
23.9	2608.33
23.92	2483.33
23.94	2391.67
23.96	2220
23.98	1976.67
24	1738.33
24.02	1505
24.04	1378.33
24.06	1320
24.08	1301.67
24.1	1255
24.12	1273.33
24.14	1323.33
24.16	1326.67
24.18	1383.33
24.2	1446.67
24.22	1498.33
24.24	1570
24.26	1611.67
24.28	1735
24.3	1770
24.32	1726.67
24.34	1613.33
24.36	1496.67
24.38	1481.67
24.4	1291.67
24.42	1098.33
24.44	1023.33
24.46	986.667
24.48	948.333
24.5	915
24.52	876.667
24.54	835
24.56	811.667
24.58	806.667
24.6	846.667
24.62	798.333
24.64	743.333
24.66	726.667
24.68	815
24.7	800
24.72	751.667
24.74	755
24.76	730
24.78	768.333
24.8	761.667
24.82	780
24.84	810
24.86	831.667
24.88	851.667
24.9	801.667
24.92	788.333
24.94	770
24.96	808.333
24.98	808.333
25	820
25.02	810
25.04	766.667
25.06	770
25.08	785
25.1	763.333
25.12	778.333
25.14	706.667
25.16	761.667
25.18	778.333
25.2	756.667
25.22	763.333
25.24	761.667
25.26	781.667
25.28	750
25.3	791.667
25.32	783.333
25.34	770
25.36	785
25.38	803.333
25.4	820
25.42	733.333
25.44	770
25.46	735
25.48	698.333
25.5	736.667
25.52	833.333
25.54	773.333
25.56	780
25.58	765
25.6	763.333
25.62	750
25.64	718.333
25.66	736.667
25.68	778.333
25.7	788.333
25.72	751.667
25.74	796.667
25.76	743.333
25.78	706.667
25.8	743.333
25.82	785
25.84	771.667
25.86	795
25.88	818.333
25.9	775
25.92	720
25.94	751.667
25.96	795
25.98	788.333
26	793.333
26.02	786.667
26.04	831.667
26.06	788.333
26.08	790
26.1	830
26.12	805
26.14	821.667
26.16	815
26.18	781.667
26.2	776.667
26.22	768.333
26.24	800
26.26	778.333
26.28	793.333
26.3	761.667
26.32	815
26.34	790
26.36	741.667
26.38	841.667
26.4	803.333
26.42	778.333
26.44	775
26.46	751.667
26.48	755
26.5	745
26.52	755
26.54	781.667
26.56	776.667
26.58	813.333
26.6	760
26.62	741.667
26.64	716.667
26.66	786.667
26.68	783.333
26.7	720
26.72	743.333
26.74	730
26.76	728.333
26.78	716.667
26.8	741.667
26.82	735
26.84	746.667
26.86	800
26.88	785
26.9	748.333
26.92	740
26.94	771.667
26.96	836.667
26.98	828.333
27	751.667
27.02	768.333
27.04	708.333
27.06	755
27.08	780
27.1	765
27.12	771.667
27.14	800
27.16	811.667
27.18	835
27.2	801.667
27.22	751.667
27.24	786.667
27.26	850
27.28	800
27.3	823.333
27.32	846.667
27.34	865
27.36	855
27.38	815
27.4	896.667
27.42	853.333
27.44	808.333
27.46	856.667
27.48	878.333
27.5	873.333
27.52	890
27.54	895
27.56	956.667
27.58	998.333
27.6	1108.33
27.62	1100
27.64	1161.67
27.66	1216.67
27.68	1175
27.7	1203.33
27.72	1235
27.74	1180
27.76	1206.67
27.78	1138.33
27.8	1076.67
27.82	1080
27.84	1015
27.86	1013.33
27.88	1023.33
27.9	1021.67
27.92	993.333
27.94	971.667
27.96	1001.67
27.98	956.667
28	943.333
28.02	990
28.04	983.333
28.06	926.667
28.08	895
28.1	906.667
28.12	885
28.14	828.333
28.16	975
28.18	881.667
28.2	841.667
28.22	861.667
28.24	890
28.26	873.333
28.28	890
28.3	913.333
28.32	838.333
28.34	766.667
28.36	838.333
28.38	901.667
28.4	908.333
28.42	798.333
28.44	871.667
28.46	866.667
28.48	823.333
28.5	800
28.52	805
28.54	838.333
28.56	823.333
28.58	801.667
28.6	898.333
28.62	896.667
28.64	841.667
28.66	850
28.68	843.333
28.7	833.333
28.72	841.667
28.74	866.667
28.76	856.667
28.78	815
28.8	815
28.82	821.667
28.84	830
28.86	858.333
28.88	885
28.9	833.333
28.92	848.333
28.94	808.333
28.96	821.667
28.98	796.667
29	848.333
29.02	856.667
29.04	860
29.06	861.667
29.08	861.667
29.1	760
29.12	818.333
29.14	843.333
29.16	853.333
29.18	796.667
29.2	856.667
29.22	840
29.24	860
29.26	846.667
29.28	793.333
29.3	833.333
29.32	831.667
29.34	853.333
29.36	855
29.38	851.667
29.4	850
29.42	950
29.44	901.667
29.46	900
29.48	930
29.5	933.333
29.52	946.667
29.54	951.667
29.56	963.333
29.58	865
29.6	870
29.62	888.333
29.64	910
29.66	866.667
29.68	855
29.7	870
29.72	838.333
29.74	906.667
29.76	875
29.78	911.667
29.8	893.333
29.82	861.667
29.84	863.333
29.86	873.333
29.88	861.667
29.9	868.333
29.92	833.333
29.94	870
29.96	846.667
29.98	825
30	905
30.02	908.333
30.04	911.667
30.06	925
30.08	870
30.1	871.667
30.12	880
30.14	905
30.16	938.333
30.18	943.333
30.2	936.667
30.22	915
30.24	831.667
30.26	895
30.28	958.333
30.3	915
30.32	936.667
30.34	968.333
30.36	943.333
30.38	880
30.4	885
30.42	885
30.44	885
30.46	930
30.48	913.333
30.5	891.667
30.52	913.333
30.54	946.667
30.56	915
30.58	965
30.6	886.667
30.62	880
30.64	906.667
30.66	918.333
30.68	961.667
30.7	948.333
30.72	940
30.74	928.333
30.76	1026.67
30.78	1011.67
30.8	996.667
30.82	978.333
30.84	925
30.86	1025
30.88	975
30.9	1028.33
30.92	1060
30.94	1016.67
30.96	1043.33
30.98	1065
31	1163.33
31.02	1085
31.04	1136.67
31.06	1153.33
31.08	1230
31.1	1193.33
31.12	1265
31.14	1331.67
31.16	1386.67
31.18	1445
31.2	1515
31.22	1448.33
31.24	1495
31.26	1611.67
31.28	1680
31.3	1725
31.32	1711.67
31.34	1726.67
31.36	1761.67
31.38	1783.33
31.4	1888.33
31.42	1846.67
31.44	1856.67
31.46	1895
31.48	1781.67
31.5	1805
31.52	1751.67
31.54	1765
31.56	1816.67
31.58	1775
31.6	1730
31.62	1700
31.64	1530
31.66	1611.67
31.68	1601.67
31.7	1575
31.72	1440
31.74	1486.67
31.76	1398.33
31.78	1436.67
31.8	1296.67
31.82	1300
31.84	1298.33
31.86	1325
31.88	1250
31.9	1185
31.92	1183.33
31.94	1186.67
31.96	1165
31.98	1041.67
32	1051.67
32.02	1113.33
32.04	1033.33
32.06	1018.33
32.08	988.333
32.1	1021.67
32.12	943.333
32.14	916.667
32.16	986.667
32.18	961.667
32.2	931.667
32.22	978.333
32.24	950
32.26	916.667
32.28	918.333
32.3	953.333
32.32	903.333
32.34	935
32.36	933.333
32.38	863.333
32.4	948.333
32.42	930
32.44	935
32.46	988.333
32.48	920
32.5	953.333
32.52	938.333
32.54	980
32.56	1016.67
32.58	970
32.6	988.333
32.62	943.333
32.64	916.667
32.66	883.333
32.68	876.667
32.7	891.667
32.72	940
32.74	960
32.76	971.667
32.78	1026.67
32.8	936.667
32.82	905
32.84	943.333
32.86	998.333
32.88	978.333
32.9	1028.33
32.92	1006.67
32.94	1031.67
32.96	1076.67
32.98	993.333
33	1060
33.02	1026.67
33.04	945
33.06	1010
33.08	1001.67
33.1	995
33.12	1048.33
33.14	1056.67
33.16	995
33.18	955
33.2	971.667
33.22	960
33.24	906.667
33.26	933.333
33.28	916.667
33.3	880
33.32	931.667
33.34	950
33.36	841.667
33.38	895
33.4	888.333
33.42	838.333
33.44	835
33.46	856.667
33.48	840
33.5	856.667
33.52	890
33.54	866.667
33.56	945
33.58	948.333
33.6	936.667
33.62	921.667
33.64	931.667
33.66	933.333
33.68	1033.33
33.7	1016.67
33.72	1048.33
33.74	1073.33
33.76	1123.33
33.78	1050
33.8	1023.33
33.82	1053.33
33.84	1038.33
33.86	1001.67
33.88	1061.67
33.9	1053.33
33.92	956.667
33.94	976.667
33.96	1143.33
33.98	1125
34	1186.67
34.02	1248.33
34.04	1280
34.06	1335
34.08	1343.33
34.1	1391.67
34.12	1333.33
34.14	1330
34.16	1240
34.18	1165
34.2	1168.33
34.22	1193.33
34.24	1103.33
34.26	1056.67
34.28	1018.33
34.3	1110
34.32	1125
34.34	1150
34.36	1141.67
34.38	1150
34.4	1123.33
34.42	1195
34.44	1096.67
34.46	1243.33
34.48	1093.33
34.5	1120
34.52	1165
34.54	1191.67
34.56	1173.33
34.58	1161.67
34.6	1261.67
34.62	1146.67
34.64	1241.67
34.66	1173.33
34.68	1151.67
34.7	1196.67
34.72	1080
34.74	1041.67
34.76	1056.67
34.78	910
34.8	926.667
34.82	921.667
34.84	846.667
34.86	868.333
34.88	848.333
34.9	848.333
34.92	791.667
34.94	823.333
34.96	830
34.98	876.667
35	841.667
35.02	811.667
35.04	788.333
35.06	921.667
35.08	848.333
35.1	856.667
35.12	798.333
35.14	858.333
35.16	915
35.18	865
35.2	861.667
35.22	888.333
35.24	826.667
35.26	853.333
35.28	825
35.3	853.333
35.32	866.667
35.34	913.333
35.36	816.667
35.38	783.333
35.4	910
35.42	903.333
35.44	848.333
35.46	815
35.48	818.333
35.5	876.667
35.52	890
35.54	876.667
35.56	776.667
35.58	816.667
35.6	793.333
35.62	906.667
35.64	850
35.66	801.667
35.68	811.667
35.7	780
35.72	828.333
35.74	813.333
35.76	798.333
35.78	771.667
35.8	813.333
35.82	868.333
35.84	821.667
35.86	858.333
35.88	808.333
35.9	880
35.92	795
35.94	818.333
35.96	780
35.98	776.667
36	808.333
36.02	805
36.04	768.333
36.06	870
36.08	815
36.1	823.333
36.12	798.333
36.14	896.667
36.16	865
36.18	811.667
36.2	861.667
36.22	905
36.24	826.667
36.26	860
36.28	835
36.3	753.333
36.32	843.333
36.34	898.333
36.36	793.333
36.38	775
36.4	851.667
36.42	865
36.44	826.667
36.46	796.667
36.48	740
36.5	761.667
36.52	790
36.54	815
36.56	825
36.58	875
36.6	830
36.62	831.667
36.64	865
36.66	806.667
36.68	891.667
36.7	850
36.72	813.333
36.74	860
36.76	865
36.78	810
36.8	801.667
36.82	818.333
36.84	823.333
36.86	801.667
36.88	813.333
36.9	870
36.92	805
36.94	801.667
36.96	828.333
36.98	836.667
37	813.333
37.02	828.333
37.04	875
37.06	833.333
37.08	808.333
37.1	781.667
37.12	760
37.14	768.333
37.16	776.667
37.18	763.333
37.2	741.667
37.22	808.333
37.24	730
37.26	758.333
37.28	755
37.3	775
37.32	825
37.34	733.333
37.36	771.667
37.38	815
37.4	731.667
37.42	773.333
37.44	725
37.46	748.333
37.48	793.333
37.5	808.333
37.52	765
37.54	721.667
37.56	785
37.58	770
37.6	835
37.62	718.333
37.64	796.667
37.66	833.333
37.68	750
37.7	690
37.72	796.667
37.74	791.667
37.76	693.333
37.78	761.667
37.8	756.667
37.82	840
37.84	741.667
37.86	713.333
37.88	721.667
37.9	726.667
37.92	751.667
37.94	813.333
37.96	751.667
37.98	763.333
38	770
38.02	748.333
38.04	796.667
38.06	723.333
38.08	803.333
38.1	751.667
38.12	816.667
38.14	775
38.16	710
38.18	751.667
38.2	763.333
38.22	770
38.24	760
38.26	775
38.28	766.667
38.3	718.333
38.32	791.667
38.34	843.333
38.36	770
38.38	836.667
38.4	930
38.42	811.667
38.44	895
38.46	836.667
38.48	893.333
38.5	876.667
38.52	858.333
38.54	873.333
38.56	841.667
38.58	890
38.6	858.333
38.62	963.333
38.64	868.333
38.66	898.333
38.68	970
38.7	883.333
38.72	973.333
38.74	921.667
38.76	820
38.78	915
38.8	970
38.82	953.333
38.84	928.333
38.86	961.667
38.88	883.333
38.9	945
38.92	885
38.94	928.333
38.96	858.333
38.98	896.667
39	940
39.02	878.333
39.04	890
39.06	788.333
39.08	816.667
39.1	831.667
39.12	908.333
39.14	921.667
39.16	806.667
39.18	860
39.2	821.667
39.22	810
39.24	821.667
39.26	776.667
39.28	830
39.3	780
39.32	810
39.34	780
39.36	740
39.38	843.333
39.4	808.333
39.42	805
39.44	878.333
39.46	855
39.48	831.667
39.5	828.333
39.52	875
39.54	868.333
39.56	830
39.58	796.667
39.6	846.667
39.62	805
39.64	778.333
39.66	840
39.68	816.667
39.7	718.333
39.72	860
39.74	758.333
39.76	738.333
39.78	775
39.8	756.667
39.82	790
39.84	768.333
39.86	761.667
39.88	818.333
39.9	783.333
39.92	781.667
39.94	806.667
39.96	795
39.98	753.333
40	741.667
40.02	810
40.04	806.667
40.06	788.333
40.08	818.333
40.1	786.667
40.12	765
40.14	798.333
40.16	800
40.18	835
40.2	806.667
40.22	781.667
40.24	855
40.26	880
40.28	795
40.3	808.333
40.32	785
40.34	765
40.36	828.333
40.38	786.667
40.4	825
40.42	823.333
40.44	870
40.46	891.667
40.48	828.333
40.5	933.333
40.52	866.667
40.54	878.333
40.56	858.333
40.58	881.667
40.6	921.667
40.62	876.667
40.64	843.333
40.66	863.333
40.68	850
40.7	838.333
40.72	836.667
40.74	845
40.76	773.333
40.78	798.333
40.8	798.333
40.82	765
40.84	783.333
40.86	761.667
40.88	841.667
40.9	816.667
40.92	795
40.94	818.333
40.96	733.333
40.98	745
41	750
41.02	775
41.04	791.667
41.06	785
41.08	785
41.1	743.333
41.12	746.667
41.14	731.667
41.16	781.667
41.18	775
41.2	785
41.22	746.667
41.24	725
41.26	795
41.28	793.333
41.3	753.333
41.32	790
41.34	736.667
41.36	746.667
41.38	721.667
41.4	788.333
41.42	798.333
41.44	826.667
41.46	766.667
41.48	750
41.5	783.333
41.52	725
41.54	805
41.56	761.667
41.58	761.667
41.6	810
41.62	771.667
41.64	768.333
41.66	720
41.68	733.333
41.7	740
41.72	810
41.74	843.333
41.76	841.667
41.78	793.333
41.8	851.667
41.82	803.333
41.84	826.667
41.86	890
41.88	931.667
41.9	950
41.92	1026.67
41.94	1078.33
41.96	1165
41.98	1245
42	1226.67
42.02	1200
42.04	1201.67
42.06	1165
42.08	1193.33
42.1	1085
42.12	1028.33
42.14	1080
42.16	986.667
42.18	953.333
42.2	895
42.22	906.667
42.24	808.333
42.26	831.667
42.28	765
42.3	855
42.32	806.667
42.34	798.333
42.36	825
42.38	818.333
42.4	761.667
42.42	786.667
42.44	815
42.46	756.667
42.48	796.667
42.5	753.333
42.52	796.667
42.54	778.333
42.56	783.333
42.58	741.667
42.6	813.333
42.62	813.333
42.64	775
42.66	783.333
42.68	785
42.7	765
42.72	748.333
42.74	756.667
42.76	786.667
42.78	856.667
42.8	785
42.82	778.333
42.84	791.667
42.86	810
42.88	830
42.9	838.333
42.92	878.333
42.94	853.333
42.96	910
42.98	913.333
43	996.667
43.02	903.333
43.04	900
43.06	930
43.08	888.333
43.1	950
43.12	911.667
43.14	861.667
43.16	863.333
43.18	833.333
43.2	811.667
43.22	828.333
43.24	826.667
43.26	786.667
43.28	806.667
43.3	765
43.32	756.667
43.34	763.333
43.36	770
43.38	775
43.4	778.333
43.42	725
43.44	780
43.46	776.667
43.48	741.667
43.5	736.667
43.52	716.667
43.54	710
43.56	696.667
43.58	748.333
43.6	803.333
43.62	761.667
43.64	731.667
43.66	798.333
43.68	796.667
43.7	756.667
43.72	751.667
43.74	778.333
43.76	721.667
43.78	721.667
43.8	680
43.82	723.333
43.84	785
43.86	781.667
43.88	763.333
43.9	736.667
43.92	806.667
43.94	791.667
43.96	753.333
43.98	786.667
44	816.667
44.02	813.333
44.04	858.333
44.06	870
44.08	896.667
44.1	896.667
44.12	825
44.14	900
44.16	958.333
44.18	948.333
44.2	970
44.22	971.667
44.24	1008.33
44.26	965
44.28	896.667
44.3	863.333
44.32	895
44.34	896.667
44.36	883.333
44.38	928.333
44.4	883.333
44.42	853.333
44.44	860
44.46	810
44.48	886.667
44.5	870
44.52	850
44.54	840
44.56	850
44.58	876.667
44.6	901.667
44.62	870
44.64	920
44.66	908.333
44.68	906.667
44.7	945
44.72	980
44.74	1086.67
44.76	1055
44.78	1071.67
44.8	1080
44.82	1173.33
44.84	1248.33
44.86	1285
44.88	1261.67
44.9	1276.67
44.92	1265
44.94	1203.33
44.96	1263.33
44.98	1271.67
45	1213.33
45.02	1168.33
45.04	1158.33
45.06	1158.33
45.08	1066.67
45.1	1110
45.12	1093.33
45.14	1038.33
45.16	978.333
45.18	945
45.2	968.333
45.22	961.667
45.24	1015
45.26	1000
45.28	923.333
45.3	956.667
45.32	940
45.34	1011.67
45.36	1033.33
45.38	950
45.4	920
45.42	913.333
45.44	883.333
45.46	925
45.48	898.333
45.5	893.333
45.52	895
45.54	858.333
45.56	895
45.58	916.667
45.6	838.333
45.62	806.667
45.64	793.333
45.66	800
45.68	801.667
45.7	790
45.72	805
45.74	828.333
45.76	805
45.78	798.333
45.8	758.333
45.82	748.333
45.84	785
45.86	840
45.88	818.333
45.9	858.333
45.92	841.667
45.94	830
45.96	760
45.98	790
46	808.333
46.02	738.333
46.04	783.333
46.06	781.667
46.08	766.667
46.1	743.333
46.12	801.667
46.14	785
46.16	720
46.18	718.333
46.2	748.333
46.22	738.333
46.24	743.333
46.26	761.667
46.28	776.667
46.3	770
46.32	721.667
46.34	733.333
46.36	806.667
46.38	810
46.4	838.333
46.42	828.333
46.44	833.333
46.46	850
46.48	825
46.5	851.667
46.52	865
46.54	888.333
46.56	900
46.58	900
46.6	891.667
46.62	953.333
46.64	956.667
46.66	921.667
46.68	968.333
46.7	1001.67
46.72	1068.33
46.74	1096.67
46.76	1093.33
46.78	1091.67
46.8	1145
46.82	1138.33
46.84	1140
46.86	1131.67
46.88	1048.33
46.9	1070
46.92	1083.33
46.94	1053.33
46.96	1026.67
46.98	1091.67
47	1046.67
47.02	976.667
47.04	963.333
47.06	950
47.08	925
47.1	923.333
47.12	903.333
47.14	850
47.16	846.667
47.18	853.333
47.2	855
47.22	896.667
47.24	898.333
47.26	885
47.28	898.333
47.3	851.667
47.32	840
47.34	843.333
47.36	810
47.38	860
47.4	865
47.42	828.333
47.44	783.333
47.46	840
47.48	826.667
47.5	840
47.52	818.333
47.54	810
47.56	750
47.58	790
47.6	820
47.62	775
47.64	778.333
47.66	793.333
47.68	755
47.7	745
47.72	750
47.74	753.333
47.76	776.667
47.78	766.667
47.8	730
47.82	703.333
47.84	738.333
47.86	771.667
47.88	740
47.9	708.333
47.92	708.333
47.94	715
47.96	736.667
47.98	753.333
48	731.667
48.02	760
48.04	758.333
48.06	786.667
48.08	775
48.1	771.667
48.12	736.667
48.14	716.667
48.16	760
48.18	771.667
48.2	768.333
48.22	723.333
48.24	740
48.26	721.667
48.28	708.333
48.3	748.333
48.32	720
48.34	716.667
48.36	725
48.38	740
48.4	725
48.42	740
48.44	741.667
48.46	706.667
48.48	696.667
48.5	710
48.52	685
48.54	703.333
48.56	696.667
48.58	678.333
48.6	691.667
48.62	726.667
48.64	741.667
48.66	748.333
48.68	746.667
48.7	695
48.72	715
48.74	721.667
48.76	758.333
48.78	765
48.8	770
48.82	776.667
48.84	758.333
48.86	736.667
48.88	751.667
48.9	801.667
48.92	786.667
48.94	775
48.96	760
48.98	775
49	756.667
49.02	765
49.04	740
49.06	716.667
49.08	728.333
49.1	708.333
49.12	710
49.14	695
49.16	705
49.18	706.667
49.2	696.667
49.22	723.333
49.24	698.333
49.26	678.333
49.28	676.667
49.3	735
49.32	770
49.34	738.333
49.36	761.667
49.38	761.667
49.4	718.333
49.42	700
49.44	708.333
49.46	720
49.48	683.333
49.5	678.333
49.52	728.333
49.54	740
49.56	751.667
49.58	748.333
49.6	726.667
49.62	696.667
49.64	686.667
49.66	765
49.68	778.333
49.7	765
49.72	745
49.74	711.667
49.76	738.333
49.78	733.333
49.8	733.333
49.82	748.333
49.84	743.333
49.86	755
49.88	788.333
49.9	791.667
49.92	745
49.94	713.333
49.96	735
49.98	735
50	743.333
50.02	770
50.04	753.333
50.06	725
50.08	736.667
50.1	751.667
50.12	765
50.14	711.667
50.16	715
50.18	753.333
50.2	686.667
50.22	711.667
50.24	741.667
50.26	723.333
50.28	750
50.3	756.667
50.32	761.667
50.34	743.333
50.36	751.667
50.38	766.667
50.4	741.667
50.42	750
50.44	766.667
50.46	755
50.48	765
50.5	760
50.52	723.333
50.54	745
50.56	765
50.58	786.667
50.6	813.333
50.62	760
50.64	725
50.66	751.667
50.68	778.333
50.7	793.333
50.72	771.667
50.74	745
50.76	763.333
50.78	786.667
50.8	756.667
50.82	711.667
50.84	751.667
50.86	776.667
50.88	753.333
50.9	735
50.92	723.333
50.94	758.333
50.96	785
50.98	771.667
51	775
51.02	796.667
51.04	761.667
51.06	743.333
51.08	721.667
51.1	741.667
51.12	760
51.14	730
51.16	731.667
51.18	726.667
51.2	730
51.22	781.667
51.24	776.667
51.26	736.667
51.28	715
51.3	706.667
51.32	751.667
51.34	788.333
51.36	786.667
51.38	748.333
51.4	708.333
51.42	688.333
51.44	643.333
51.46	633.333
51.48	713.333
51.5	758.333
51.52	735
51.54	700
51.56	703.333
51.58	750
51.6	730
51.62	701.667
51.64	693.333
51.66	720
51.68	683.333
51.7	691.667
51.72	693.333
51.74	645
51.76	673.333
51.78	663.333
51.8	693.333
51.82	715
51.84	723.333
51.86	728.333
51.88	716.667
51.9	718.333
51.92	720
51.94	723.333
51.96	731.667
51.98	725
52	688.333
52.02	701.667
52.04	710
52.06	710
52.08	691.667
52.1	700
52.12	720
52.14	721.667
52.16	705
52.18	683.333
52.2	713.333
52.22	748.333
52.24	695
52.26	660
52.28	698.333
52.3	708.333
52.32	690
52.34	725
52.36	761.667
52.38	706.667
52.4	690
52.42	708.333
52.44	725
52.46	723.333
52.48	701.667
52.5	733.333
52.52	735
52.54	716.667
52.56	686.667
52.58	715
52.6	731.667
52.62	693.333
52.64	731.667
52.66	725
52.68	726.667
52.7	728.333
52.72	696.667
52.74	710
52.76	731.667
52.78	720
52.8	690
52.82	681.667
52.84	705
52.86	748.333
52.88	726.667
52.9	693.333
52.92	733.333
52.94	786.667
52.96	710
52.98	735
53	721.667
53.02	775
53.04	778.333
53.06	735
53.08	740
53.1	766.667
53.12	731.667
53.14	713.333
53.16	736.667
53.18	776.667
53.2	748.333
53.22	708.333
53.24	705
53.26	713.333
53.28	753.333
53.3	751.667
53.32	776.667
53.34	735
53.36	771.667
53.38	755
53.4	745
53.42	720
53.44	711.667
53.46	720
53.48	723.333
53.5	798.333
53.52	801.667
53.54	781.667
53.56	735
53.58	700
53.6	748.333
53.62	775
53.64	765
53.66	716.667
53.68	776.667
53.7	776.667
53.72	753.333
53.74	805
53.76	760
53.78	815
53.8	783.333
53.82	758.333
53.84	753.333
53.86	768.333
53.88	743.333
53.9	745
53.92	755
53.94	735
53.96	735
53.98	788.333
54	763.333
54.02	753.333
54.04	733.333
54.06	750
54.08	773.333
54.1	746.667
54.12	741.667
54.14	750
54.16	760
54.18	725
54.2	721.667
54.22	761.667
54.24	808.333
54.26	746.667
54.28	758.333
54.3	740
54.32	760
54.34	783.333
54.36	793.333
54.38	795
54.4	745
54.42	785
54.44	793.333
54.46	748.333
54.48	731.667
54.5	773.333
54.52	755
54.54	773.333
54.56	826.667
54.58	783.333
54.6	785
54.62	763.333
54.64	798.333
54.66	808.333
54.68	838.333
54.7	891.667
54.72	836.667
54.74	820
54.76	826.667
54.78	816.667
54.8	820
54.82	798.333
54.84	910
54.86	838.333
54.88	801.667
54.9	860
54.92	790
54.94	806.667
54.96	828.333
54.98	823.333
55	806.667
55.02	790
55.04	831.667
55.06	791.667
55.08	798.333
55.1	786.667
55.12	798.333
55.14	828.333
55.16	860
55.18	841.667
55.2	768.333
55.22	805
55.24	825
55.26	785
55.28	813.333
55.3	796.667
55.32	738.333
55.34	823.333
55.36	765
55.38	761.667
55.4	798.333
55.42	810
55.44	783.333
55.46	890
55.48	855
55.5	896.667
55.52	886.667
55.54	890
55.56	861.667
55.58	840
55.6	935
55.62	918.333
55.64	936.667
55.66	950
55.68	960
55.7	990
55.72	1095
55.74	971.667
55.76	956.667
55.78	970
55.8	1008.33
55.82	981.667
55.84	998.333
55.86	981.667
55.88	1028.33
55.9	1015
55.92	960
55.94	996.667
55.96	975
55.98	883.333
56	895
56.02	923.333
56.04	990
56.06	1010
56.08	936.667
56.1	983.333
56.12	1023.33
56.14	1000
56.16	1026.67
56.18	975
56.2	993.333
56.22	1008.33
56.24	995
56.26	996.667
56.28	1033.33
56.3	1000
56.32	983.333
56.34	1043.33
56.36	1056.67
56.38	1015
56.4	1023.33
56.42	1021.67
56.44	973.333
56.46	993.333
56.48	960
56.5	928.333
56.52	863.333
56.54	906.667
56.56	900
56.58	906.667
56.6	918.333
56.62	848.333
56.64	913.333
56.66	856.667
56.68	866.667
56.7	853.333
56.72	843.333
56.74	815
56.76	780
56.78	855
56.8	856.667
56.82	860
56.84	806.667
56.86	815
56.88	821.667
56.9	825
56.92	823.333
56.94	885
56.96	776.667
56.98	833.333
57	823.333
57.02	903.333
57.04	873.333
57.06	781.667
57.08	821.667
57.1	751.667
57.12	803.333
57.14	755
57.16	726.667
57.18	825
57.2	768.333
57.22	756.667
57.24	745
57.26	768.333
57.28	815
57.3	765
57.32	760
57.34	761.667
57.36	785
57.38	826.667
57.4	705
57.42	761.667
57.44	713.333
57.46	770
57.48	795
57.5	731.667
57.52	770
57.54	726.667
57.56	698.333
57.58	848.333
57.6	733.333
57.62	708.333
57.64	676.667
57.66	771.667
57.68	746.667
57.7	678.333
57.72	690
57.74	753.333
57.76	710
57.78	723.333
57.8	713.333
57.82	785
57.84	820
57.86	735
57.88	766.667
57.9	766.667
57.92	793.333
57.94	771.667
57.96	736.667
57.98	723.333
58	765
58.02	800
58.04	698.333
58.06	788.333
58.08	746.667
58.1	773.333
58.12	735
58.14	835
58.16	720
58.18	791.667
58.2	775
58.22	731.667
58.24	673.333
58.26	786.667
58.28	700
58.3	673.333
58.32	731.667
58.34	780
58.36	783.333
58.38	741.667
58.4	751.667
58.42	771.667
58.44	745
58.46	756.667
58.48	776.667
58.5	766.667
58.52	703.333
58.54	740
58.56	733.333
58.58	710
58.6	756.667
58.62	726.667
58.64	765
58.66	795
58.68	726.667
58.7	818.333
58.72	728.333
58.74	820
58.76	805
58.78	798.333
58.8	753.333
58.82	751.667
58.84	720
58.86	703.333
58.88	763.333
58.9	796.667
58.92	823.333
58.94	766.667
58.96	773.333
58.98	855
59	788.333
59.02	805
59.04	851.667
59.06	853.333
59.08	811.667
59.1	836.667
59.12	823.333
59.14	841.667
59.16	793.333
59.18	873.333
59.2	805
59.22	788.333
59.24	805
59.26	780
59.28	841.667
59.3	738.333
59.32	763.333
59.34	836.667
59.36	720
59.38	778.333
59.4	783.333
59.42	755
59.44	753.333
59.46	721.667
59.48	745
59.5	791.667
59.52	785
59.54	785
59.56	738.333
59.58	696.667
59.6	675
59.62	731.667
59.64	783.333
59.66	748.333
59.68	718.333
59.7	701.667
59.72	728.333
59.74	810
59.76	733.333
59.78	740
59.8	776.667
59.82	786.667
59.84	746.667
59.86	723.333
59.88	740
59.9	758.333
59.92	711.667
59.94	745
59.96	708.333
59.98	696.667
60	716.667
60.02	728.333
60.04	741.667
60.06	730
60.08	750
60.1	715
60.12	711.667
60.14	726.667
60.16	718.333
60.18	691.667
60.2	746.667
60.22	711.667
60.24	711.667
60.26	718.333
60.28	711.667
60.3	708.333
60.32	705
60.34	698.333
60.36	725
60.38	748.333
60.4	743.333
60.42	726.667
60.44	738.333
60.46	720
60.48	721.667
60.5	730
60.52	741.667
60.54	730
60.56	698.333
60.58	716.667
60.6	713.333
60.62	703.333
60.64	758.333
60.66	796.667
60.68	746.667
60.7	791.667
60.72	781.667
60.74	726.667
60.76	751.667
60.78	753.333
60.8	806.667
60.82	828.333
60.84	785
60.86	806.667
60.88	758.333
60.9	815
60.92	840
60.94	781.667
60.96	781.667
60.98	828.333
61	811.667
61.02	796.667
61.04	825
61.06	836.667
61.08	790
61.1	781.667
61.12	781.667
61.14	786.667
61.16	788.333
61.18	771.667
61.2	811.667
61.22	775
61.24	826.667
61.26	806.667
61.28	771.667
61.3	766.667
61.32	815
61.34	721.667
61.36	686.667
61.38	740
61.4	775
61.42	748.333
61.44	723.333
61.46	726.667
61.48	751.667
61.5	790
61.52	796.667
61.54	806.667
61.56	771.667
61.58	766.667
61.6	800
61.62	795
61.64	746.667
61.66	725
61.68	741.667
61.7	776.667
61.72	766.667
61.74	736.667
61.76	761.667
61.78	781.667
61.8	785
61.82	738.333
61.84	736.667
61.86	761.667
61.88	766.667
61.9	741.667
61.92	771.667
61.94	761.667
61.96	735
61.98	741.667
62	735
62.02	718.333
62.04	708.333
62.06	798.333
62.08	811.667
62.1	738.333
62.12	728.333
62.14	741.667
62.16	735
62.18	763.333
62.2	801.667
62.22	761.667
62.24	721.667
62.26	771.667
62.28	770
62.3	736.667
62.32	768.333
62.34	781.667
62.36	751.667
62.38	783.333
62.4	736.667
62.42	733.333
62.44	761.667
62.46	766.667
62.48	748.333
62.5	745
62.52	753.333
62.54	765
62.56	808.333
62.58	770
62.6	778.333
62.62	801.667
62.64	813.333
62.66	800
62.68	781.667
62.7	816.667
62.72	815
62.74	736.667
62.76	728.333
62.78	768.333
62.8	775
62.82	760
62.84	771.667
62.86	760
62.88	766.667
62.9	790
62.92	798.333
62.94	780
62.96	746.667
62.98	755
63	750
63.02	731.667
63.04	730
63.06	766.667
63.08	795
63.1	776.667
63.12	758.333
63.14	740
63.16	760
63.18	761.667
63.2	746.667
63.22	760
63.24	766.667
63.26	765
63.28	746.667
63.3	763.333
63.32	760
63.34	760
63.36	780
63.38	736.667
63.4	693.333
63.42	728.333
63.44	760
63.46	736.667
63.48	713.333
63.5	716.667
63.52	736.667
63.54	713.333
63.56	728.333
63.58	745
63.6	723.333
63.62	701.667
63.64	716.667
63.66	765
63.68	790
63.7	771.667
63.72	763.333
63.74	733.333
63.76	720
63.78	763.333
63.8	726.667
63.82	703.333
63.84	748.333
63.86	763.333
63.88	766.667
63.9	755
63.92	718.333
63.94	710
63.96	725
63.98	758.333
64	795
64.02	743.333
64.04	743.333
64.06	775
64.08	723.333
64.1	718.333
64.12	760
64.14	746.667
64.16	736.667
64.18	771.667
64.2	753.333
64.22	725
64.24	715
64.26	711.667
64.28	740
64.3	736.667
64.32	726.667
64.34	736.667
64.36	695
64.38	691.667
64.4	745
64.42	728.333
64.44	710
64.46	771.667
64.48	795
64.5	756.667
64.52	761.667
64.54	736.667
64.56	705
64.58	701.667
64.6	663.333
64.62	695
64.64	741.667
64.66	738.333
64.68	725
64.7	740
64.72	781.667
64.74	756.667
64.76	728.333
64.78	760
64.8	771.667
64.82	755
64.84	781.667
64.86	785
64.88	735
64.9	725
64.92	758.333
64.94	758.333
64.96	743.333
64.98	758.333
65	775
65.02	753.333
65.04	756.667
65.06	776.667
65.08	803.333
65.1	783.333
65.12	763.333
65.14	796.667
65.16	800
65.18	751.667
65.2	766.667
65.22	765
65.24	778.333
65.26	785
65.28	780
65.3	780
65.32	758.333
65.34	795
65.36	855
65.38	843.333
65.4	788.333
65.42	818.333
65.44	801.667
65.46	818.333
65.48	828.333
65.5	785
65.52	790
65.54	786.667
65.56	810
65.58	821.667
65.6	836.667
65.62	860
65.64	828.333
65.66	788.333
65.68	835
65.7	826.667
65.72	783.333
65.74	785
65.76	823.333
65.78	848.333
65.8	826.667
65.82	810
65.84	823.333
65.86	841.667
65.88	793.333
65.9	818.333
65.92	825
65.94	771.667
65.96	765
65.98	768.333
66	753.333
66.02	755
66.04	748.333
66.06	771.667
66.08	808.333
66.1	810
66.12	781.667
66.14	775
66.16	748.333
66.18	746.667
66.2	740
66.22	760
66.24	786.667
66.26	795
66.28	743.333
66.3	748.333
66.32	745
66.34	701.667
66.36	735
66.38	768.333
66.4	755
66.42	721.667
66.44	741.667
66.46	745
66.48	720
66.5	693.333
66.52	680
66.54	685
66.56	728.333
66.58	740
66.6	731.667
66.62	745
66.64	750
66.66	711.667
66.68	731.667
66.7	730
66.72	741.667
66.74	723.333
66.76	713.333
66.78	751.667
66.8	733.333
66.82	725
66.84	743.333
66.86	751.667
66.88	726.667
66.9	678.333
66.92	716.667
66.94	745
66.96	730
66.98	705
67	743.333
67.02	698.333
67.04	673.333
67.06	740
67.08	725
67.1	730
67.12	775
67.14	750
67.16	713.333
67.18	691.667
67.2	746.667
67.22	788.333
67.24	721.667
67.26	718.333
67.28	738.333
67.3	741.667
67.32	788.333
67.34	698.333
67.36	700
67.38	703.333
67.4	716.667
67.42	745
67.44	685
67.46	683.333
67.48	708.333
67.5	703.333
67.52	701.667
67.54	736.667
67.56	721.667
67.58	733.333
67.6	736.667
67.62	686.667
67.64	698.333
67.66	686.667
67.68	733.333
67.7	668.333
67.72	680
67.74	701.667
67.76	751.667
67.78	716.667
67.8	683.333
67.82	708.333
67.84	743.333
67.86	780
67.88	796.667
67.9	750
67.92	733.333
67.94	758.333
67.96	751.667
67.98	730
68	755
68.02	790
68.04	786.667
68.06	798.333
68.08	813.333
68.1	766.667
68.12	801.667
68.14	855
68.16	870
68.18	861.667
68.2	853.333
68.22	831.667
68.24	810
68.26	770
68.28	803.333
68.3	838.333
68.32	863.333
68.34	840
68.36	793.333
68.38	795
68.4	821.667
68.42	733.333
68.44	755
68.46	781.667
68.48	773.333
68.5	795
68.52	795
68.54	781.667
68.56	793.333
68.58	801.667
68.6	788.333
68.62	758.333
68.64	768.333
68.66	796.667
68.68	728.333
68.7	758.333
68.72	735
68.74	746.667
68.76	726.667
68.78	760
68.8	771.667
68.82	741.667
68.84	728.333
68.86	785
68.88	761.667
68.9	751.667
68.92	741.667
68.94	716.667
68.96	736.667
68.98	765
69	776.667
69.02	725
69.04	728.333
69.06	731.667
69.08	748.333
69.1	688.333
69.12	721.667
69.14	748.333
69.16	755
69.18	713.333
69.2	721.667
69.22	786.667
69.24	703.333
69.26	696.667
69.28	715
69.3	746.667
69.32	775
69.34	728.333
69.36	773.333
69.38	763.333
69.4	770
69.42	741.667
69.44	718.333
69.46	771.667
69.48	800
69.5	786.667
69.52	773.333
69.54	806.667
69.56	795
69.58	823.333
69.6	806.667
69.62	786.667
69.64	798.333
69.66	793.333
69.68	808.333
69.7	828.333
69.72	881.667
69.74	813.333
69.76	835
69.78	825
69.8	808.333
69.82	790
69.84	768.333
69.86	805
69.88	800
69.9	805
69.92	731.667
69.94	760
69.96	770
69.98	798.333
70	775
70.02	788.333
70.04	821.667
70.06	811.667
70.08	736.667
70.1	718.333
70.12	758.333
70.14	746.667
70.16	773.333
70.18	788.333
70.2	753.333
70.22	746.667
70.24	721.667
70.26	783.333
70.28	768.333
70.3	713.333
70.32	730
70.34	801.667
70.36	826.667
70.38	826.667
70.4	746.667
70.42	756.667
70.44	775
70.46	801.667
70.48	745
70.5	810
70.52	791.667
70.54	740
70.56	753.333
70.58	766.667
70.6	715
70.62	753.333
70.64	761.667
70.66	746.667
70.68	766.667
70.7	760
70.72	810
70.74	726.667
70.76	795
70.78	858.333
70.8	800
70.82	768.333
70.84	788.333
70.86	770
70.88	720
70.9	771.667
70.92	773.333
70.94	768.333
70.96	771.667
70.98	753.333
71	783.333
71.02	793.333
71.04	800
71.06	825
71.08	783.333
71.1	783.333
71.12	758.333
71.14	778.333
71.16	738.333
71.18	743.333
71.2	758.333
71.22	716.667
71.24	780
71.26	801.667
71.28	765
71.3	725
71.32	738.333
71.34	743.333
71.36	773.333
71.38	725
71.4	695
71.42	745
71.44	720
71.46	701.667
71.48	718.333
71.5	716.667
71.52	688.333
71.54	703.333
71.56	705
71.58	720
71.6	760
71.62	736.667
71.64	691.667
71.66	686.667
71.68	706.667
71.7	676.667
71.72	671.667
71.74	716.667
71.76	716.667
71.78	705
71.8	700
71.82	715
71.84	710
71.86	751.667
71.88	745
71.9	673.333
71.92	696.667
71.94	730
71.96	765
71.98	728.333
72	721.667
72.02	698.333
72.04	703.333
72.06	681.667
72.08	681.667
72.1	701.667
72.12	700
72.14	701.667
72.16	753.333
72.18	688.333
72.2	715
72.22	735
72.24	700
72.26	710
72.28	695
72.3	725
72.32	691.667
72.34	671.667
72.36	713.333
72.38	710
72.4	718.333
72.42	735
72.44	678.333
72.46	720
72.48	705
72.5	695
72.52	625
72.54	663.333
72.56	725
72.58	761.667
72.6	710
72.62	726.667
72.64	666.667
72.66	656.667
72.68	725
72.7	735
72.72	698.333
72.74	735
72.76	728.333
72.78	691.667
72.8	716.667
72.82	705
72.84	740
72.86	696.667
72.88	701.667
72.9	700
72.92	728.333
72.94	765
72.96	720
72.98	706.667
73	738.333
73.02	750
73.04	753.333
73.06	741.667
73.08	740
73.1	730
73.12	720
73.14	738.333
73.16	781.667
73.18	755
73.2	738.333
73.22	733.333
73.24	720
73.26	731.667
73.28	718.333
73.3	716.667
73.32	740
73.34	743.333
73.36	706.667
73.38	705
73.4	730
73.42	710
73.44	710
73.46	733.333
73.48	685
73.5	678.333
73.52	711.667
73.54	733.333
73.56	726.667
73.58	738.333
73.6	691.667
73.62	703.333
73.64	710
73.66	653.333
73.68	730
73.7	773.333
73.72	753.333
73.74	736.667
73.76	706.667
73.78	668.333
73.8	695
73.82	725
73.84	746.667
73.86	770
73.88	711.667
73.9	710
73.92	730
73.94	738.333
73.96	738.333
73.98	703.333
74	718.333
74.02	726.667
74.04	705
74.06	726.667
74.08	750
74.1	711.667
74.12	711.667
74.14	740
74.16	763.333
74.18	698.333
74.2	701.667
74.22	738.333
74.24	718.333
74.26	696.667
74.28	668.333
74.3	716.667
74.32	745
74.34	745
74.36	725
74.38	725
74.4	731.667
74.42	733.333
74.44	753.333
74.46	723.333
74.48	738.333
74.5	748.333
74.52	716.667
74.54	761.667
74.56	753.333
74.58	720
74.6	740
74.62	700
74.64	705
74.66	758.333
74.68	795
74.7	786.667
74.72	751.667
74.74	751.667
74.76	733.333
74.78	758.333
74.8	778.333
74.82	785
74.84	781.667
74.86	756.667
74.88	723.333
74.9	755
74.92	765
74.94	753.333
74.96	726.667
74.98	725
75	730
75.02	746.667
75.04	740
75.06	776.667
75.08	795
75.1	755
75.12	735
75.14	713.333
75.16	745
75.18	733.333
75.2	756.667
75.22	793.333
75.24	785
75.26	775
75.28	730
75.3	731.667
75.32	695
75.34	698.333
75.36	728.333
75.38	753.333
75.4	756.667
75.42	715
75.44	698.333
75.46	715
75.48	735
75.5	733.333
75.52	750
75.54	706.667
75.56	725
75.58	745
75.6	746.667
75.62	733.333
75.64	721.667
75.66	745
75.68	745
75.7	716.667
75.72	713.333
75.74	755
75.76	770
75.78	726.667
75.8	691.667
75.82	708.333
75.84	728.333
75.86	673.333
75.88	691.667
75.9	720
75.92	726.667
75.94	720
75.96	738.333
75.98	738.333
76	698.333
76.02	700
76.04	716.667
76.06	733.333
76.08	760
76.1	718.333
76.12	738.333
76.14	751.667
76.16	746.667
76.18	731.667
76.2	713.333
76.22	740
76.24	728.333
76.26	716.667
76.28	680
76.3	690
76.32	728.333
76.34	716.667
76.36	746.667
76.38	733.333
76.4	723.333
76.42	756.667
76.44	741.667
76.46	713.333
76.48	716.667
76.5	753.333
76.52	776.667
76.54	766.667
76.56	768.333
76.58	731.667
76.6	706.667
76.62	690
76.64	686.667
76.66	695
76.68	688.333
76.7	710
76.72	756.667
76.74	755
76.76	716.667
76.78	693.333
76.8	695
76.82	753.333
76.84	748.333
76.86	681.667
76.88	691.667
76.9	783.333
76.92	811.667
76.94	783.333
76.96	766.667
76.98	743.333
77	736.667
77.02	771.667
77.04	773.333
77.06	751.667
77.08	775
77.1	753.333
77.12	730
77.14	726.667
77.16	743.333
77.18	783.333
77.2	801.667
77.22	763.333
77.24	743.333
77.26	716.667
77.28	726.667
77.3	746.667
77.32	716.667
77.34	710
77.36	733.333
77.38	745
77.4	741.667
77.42	781.667
77.44	793.333
77.46	736.667
77.48	678.333
77.5	733.333
77.52	786.667
77.54	698.333
77.56	683.333
77.58	710
77.6	710
77.62	703.333
77.64	710
77.66	753.333
77.68	751.667
77.7	753.333
77.72	741.667
77.74	731.667
77.76	735
77.78	735
77.8	746.667
77.82	753.333
77.84	751.667
77.86	745
77.88	731.667
77.9	751.667
77.92	765
77.94	750
77.96	723.333
77.98	740
78	721.667
78.02	730
78.04	703.333
78.06	686.667
78.08	700
78.1	736.667
78.12	746.667
78.14	741.667
78.16	738.333
78.18	728.333
78.2	726.667
78.22	723.333
78.24	733.333
78.26	726.667
78.28	753.333
78.3	790
78.32	760
78.34	730
78.36	713.333
78.38	736.667
78.4	708.333
78.42	680
78.44	720
78.46	731.667
78.48	743.333
78.5	771.667
78.52	745
78.54	718.333
78.56	746.667
78.58	731.667
78.6	726.667
78.62	746.667
78.64	710
78.66	703.333
78.68	706.667
78.7	713.333
78.72	735
78.74	736.667
78.76	746.667
78.78	710
78.8	730
78.82	775
78.84	765
78.86	780
78.88	808.333
78.9	793.333
78.92	735
78.94	703.333
78.96	736.667
78.98	758.333
79	745
79.02	730
79.04	790
79.06	793.333
79.08	753.333
79.1	735
79.12	736.667
79.14	695
79.16	733.333
79.18	746.667
79.2	713.333
79.22	723.333
79.24	765
79.26	800
79.28	775
79.3	743.333
79.32	756.667
79.34	740
79.36	733.333
79.38	756.667
79.4	726.667
79.42	711.667
79.44	755
79.46	746.667
79.48	740
79.5	715
79.52	716.667
79.54	703.333
79.56	713.333
79.58	743.333
79.6	755
79.62	755
79.64	706.667
79.66	718.333
79.68	715
79.7	740
79.72	761.667
79.74	733.333
79.76	730
79.78	725
79.8	711.667
79.82	728.333
79.84	753.333
79.86	751.667
79.88	726.667
79.9	730
79.92	761.667
79.94	730
79.96	723.333
79.98	741.667
80	695
80.02	705
80.04	681.667
80.06	711.667
80.08	723.333
80.1	720
80.12	705
80.14	680
80.16	661.667
80.18	663.333
80.2	700
80.22	691.667
80.24	695
80.26	680
80.28	655
80.3	671.667
80.32	723.333
80.34	730
80.36	705
80.38	711.667
80.4	718.333
80.42	691.667
80.44	665
80.46	683.333
80.48	706.667
80.5	683.333
80.52	638.333
80.54	683.333
80.56	748.333
80.58	700
80.6	671.667
80.62	688.333
80.64	678.333
80.66	638.333
80.68	693.333
80.7	715
80.72	685
80.74	690
80.76	706.667
80.78	678.333
80.8	705
80.82	703.333
80.84	671.667
80.86	703.333
80.88	723.333
80.9	685
80.92	680
80.94	686.667
80.96	721.667
80.98	705
81	708.333
81.02	696.667
81.04	693.333
81.06	698.333
81.08	725
81.1	713.333
81.12	680
81.14	681.667
81.16	716.667
81.18	748.333
81.2	746.667
81.22	745
81.24	711.667
81.26	711.667
81.28	720
81.3	708.333
81.32	678.333
81.34	681.667
81.36	715
81.38	691.667
81.4	705
81.42	708.333
81.44	690
81.46	695
81.48	708.333
81.5	723.333
81.52	691.667
81.54	715
81.56	706.667
81.58	715
81.6	713.333
81.62	718.333
81.64	715
81.66	698.333
81.68	735
81.7	715
81.72	700
81.74	706.667
81.76	741.667
81.78	706.667
81.8	715
81.82	708.333
81.84	710
81.86	696.667
81.88	686.667
81.9	720
81.92	721.667
81.94	696.667
81.96	720
81.98	716.667
82	683.333
82.02	635
82.04	678.333
82.06	723.333
82.08	703.333
82.1	695
82.12	720
82.14	721.667
82.16	691.667
82.18	678.333
82.2	703.333
82.22	701.667
82.24	685
82.26	728.333
82.28	770
82.3	730
82.32	700
82.34	745
82.36	728.333
82.38	726.667
82.4	745
82.42	698.333
82.44	715
82.46	751.667
82.48	713.333
82.5	671.667
82.52	710
82.54	728.333
82.56	700
82.58	695
82.6	726.667
82.62	735
82.64	715
82.66	700
82.68	678.333
82.7	698.333
82.72	720
82.74	736.667
82.76	745
82.78	736.667
82.8	733.333
82.82	700
82.84	733.333
82.86	726.667
82.88	680
82.9	681.667
82.92	723.333
82.94	713.333
82.96	698.333
82.98	721.667
83	776.667
83.02	756.667
83.04	730
83.06	703.333
83.08	730
83.1	706.667
83.12	691.667
83.14	698.333
83.16	683.333
83.18	693.333
83.2	698.333
83.22	690
83.24	743.333
83.26	708.333
83.28	678.333
83.3	713.333
83.32	741.667
83.34	725
83.36	695
83.38	690
83.4	703.333
83.42	711.667
83.44	695
83.46	673.333
83.48	651.667
83.5	673.333
83.52	685
83.54	690
83.56	736.667
83.58	713.333
83.6	698.333
83.62	696.667
83.64	725
83.66	733.333
83.68	733.333
83.7	735
83.72	721.667
83.74	758.333
83.76	776.667
83.78	756.667
83.8	698.333
83.82	686.667
83.84	706.667
83.86	728.333
83.88	758.333
83.9	730
83.92	733.333
83.94	760
83.96	685
83.98	671.667
84	725
84.02	700
84.04	696.667
84.06	670
84.08	686.667
84.1	721.667
84.12	693.333
84.14	678.333
84.16	681.667
84.18	650
84.2	685
84.22	713.333
84.24	713.333
84.26	695
84.28	708.333
84.3	730
84.32	700
84.34	678.333
84.36	718.333
84.38	681.667
84.4	690
84.42	703.333
84.44	680
84.46	696.667
84.48	710
84.5	718.333
84.52	726.667
84.54	670
84.56	696.667
84.58	676.667
84.6	713.333
84.62	676.667
84.64	683.333
84.66	698.333
84.68	718.333
84.7	720
84.72	690
84.74	663.333
84.76	663.333
84.78	745
84.8	708.333
84.82	708.333
84.84	685
84.86	695
84.88	701.667
84.9	671.667
84.92	690
84.94	730
84.96	706.667
84.98	686.667
85	713.333
85.02	676.667
85.04	690
85.06	720
85.08	710
85.1	696.667
85.12	718.333
85.14	753.333
85.16	695
85.18	675
85.2	676.667
85.22	691.667
85.24	665
85.26	703.333
85.28	675
85.3	680
85.32	653.333
85.34	708.333
85.36	686.667
85.38	641.667
85.4	701.667
85.42	708.333
85.44	693.333
85.46	676.667
85.48	663.333
85.5	653.333
85.52	728.333
85.54	698.333
85.56	673.333
85.58	646.667
85.6	675
85.62	676.667
85.64	676.667
85.66	700
85.68	710
85.7	695
85.72	675
85.74	698.333
85.76	715
85.78	676.667
85.8	726.667
85.82	716.667
85.84	725
85.86	696.667
85.88	653.333
85.9	695
85.92	661.667
85.94	688.333
85.96	673.333
85.98	665
86	703.333
86.02	703.333
86.04	648.333
86.06	663.333
86.08	678.333
86.1	695
86.12	713.333
86.14	720
86.16	673.333
86.18	698.333
86.2	685
86.22	703.333
86.24	663.333
86.26	698.333
86.28	753.333
86.3	745
86.32	716.667
86.34	703.333
86.36	671.667
86.38	703.333
86.4	756.667
86.42	738.333
86.44	730
86.46	671.667
86.48	676.667
86.5	693.333
86.52	666.667
86.54	691.667
86.56	743.333
86.58	721.667
86.6	725
86.62	748.333
86.64	748.333
86.66	735
86.68	746.667
86.7	763.333
86.72	731.667
86.74	740
86.76	701.667
86.78	675
86.8	675
86.82	711.667
86.84	731.667
86.86	783.333
86.88	788.333
86.9	745
86.92	731.667
86.94	753.333
86.96	748.333
86.98	716.667
87	735
87.02	705
87.04	758.333
87.06	758.333
87.08	721.667
87.1	711.667
87.12	728.333
87.14	741.667
87.16	781.667
87.18	670
87.2	710
87.22	740
87.24	735
87.26	731.667
87.28	720
87.3	761.667
87.32	768.333
87.34	746.667
87.36	691.667
87.38	696.667
87.4	731.667
87.42	733.333
87.44	711.667
87.46	716.667
87.48	750
87.5	690
87.52	721.667
87.54	756.667
87.56	730
87.58	731.667
87.6	671.667
87.62	695
87.64	645
87.66	691.667
87.68	713.333
87.7	676.667
87.72	703.333
87.74	686.667
87.76	736.667
87.78	671.667
87.8	731.667
87.82	668.333
87.84	703.333
87.86	703.333
87.88	673.333
87.9	748.333
87.92	728.333
87.94	703.333
87.96	703.333
87.98	698.333
88	720
88.02	693.333
88.04	641.667
88.06	718.333
88.08	736.667
88.1	731.667
88.12	760
88.14	768.333
88.16	710
88.18	745
88.2	730
88.22	746.667
88.24	693.333
88.26	711.667
88.28	716.667
88.3	701.667
88.32	738.333
88.34	731.667
88.36	806.667
88.38	761.667
88.4	771.667
88.42	708.333
88.44	695
88.46	736.667
88.48	720
88.5	736.667
88.52	730
88.54	776.667
88.56	796.667
88.58	733.333
88.6	736.667
88.62	725
88.64	730
88.66	730
88.68	736.667
88.7	721.667
88.72	733.333
88.74	758.333
88.76	743.333
88.78	738.333
88.8	725
88.82	726.667
88.84	691.667
88.86	741.667
88.88	751.667
88.9	733.333
88.92	706.667
88.94	701.667
88.96	725
88.98	708.333
89	680
89.02	708.333
89.04	698.333
89.06	706.667
89.08	698.333
89.1	736.667
89.12	766.667
89.14	705
89.16	703.333
89.18	656.667
89.2	688.333
89.22	725
89.24	688.333
89.26	786.667
89.28	760
89.3	726.667
89.32	756.667
89.34	716.667
89.36	715
89.38	715
89.4	723.333
89.42	656.667
89.44	706.667
89.46	815
89.48	775
89.5	681.667
89.52	703.333
89.54	706.667
89.56	726.667
89.58	735
89.6	695
89.62	690
89.64	726.667
89.66	721.667
89.68	755
89.7	713.333
89.72	711.667
89.74	715
89.76	751.667
89.78	713.333
89.8	746.667
89.82	735
89.84	715
89.86	755
89.88	690
89.9	778.333
89.92	743.333
89.94	678.333
89.96	708.333
89.98	680
90	680
